Mean pitch,Standard deviation,Minimum pitch,Maximum pitch,Mean intensity,Minimum intensity,Maximum intensity,Number of pulses,Number of periods,Mean period,Standard deviation of period,Fraction of unvoiced,Number of voice breaks,Degree of voice breaks,Jitter local,Jitter local absolute,Jitter rap,Jitter ppq5,Jitter ddp,Shimmer local,Shimmer local dB,Shimmer apq3,Shimmer apq5,Shimmer apq11,Shimmer dda,Mean autocorrelation,Mean NHR,Mean HNR,Audio Length
217.984 ,33.015 ,180.687 ,364.198 ,32.03691742553991,52.255429714498824,5.267185006630056,285,273,4.619314E-3 ,0.560297E-3 ,36.190,5,15.667,1.915,88.477E-6 ,0.965,1.050,2.896,14.973,1.350 ,6.246,9.680,16.415,18.738,0.840574,0.238752,9.607 ,2.1375963718820863
198.477 ,32.375 ,76.003 ,490.493 ,33.63456378122627,55.21844874256267,8.457572248808065,762,732,5.059171E-3 ,0.823079E-3 ,27.194,21,33.447,1.790,90.563E-6 ,0.925,1.045,2.776,13.779,1.274 ,5.792,8.038,13.219,17.377,0.818921,0.265328,7.932 ,5.846984126984127
172.718 ,99.883 ,76.701 ,534.935 ,27.42869965475389,56.2445860579396,5.131229314705537,259,239,5.945644E-3 ,2.720056E-3 ,56.802,15,63.050,3.542,210.601E-6 ,1.900,2.657,5.699,20.925,1.692 ,9.761,14.509,21.093,29.282,0.728639,0.434744,4.899 ,4.227392290249433
225.830 ,197.288 ,79.814 ,535.435 ,39.46938615275583,57.49939460284632,-3.344945812702141,58,50,4.885766E-3 ,4.338562E-3 ,35.417,1,6.302,3.979,194.387E-6 ,2.041,2.892,6.122,22.642,1.706 ,11.694,--undefined--,--undefined--,35.083,0.621694,0.673194,2.349 ,0.5180045351473923
108.086 ,63.124 ,74.400 ,554.526 ,36.53973187206598,55.48724801965253,-5.315810004039041,604,567,9.426800E-3 ,2.904393E-3 ,23.966,28,33.063,2.885,271.979E-6 ,1.427,1.798,4.282,18.202,1.555 ,8.321,10.802,12.393,24.964,0.748701,0.392353,5.695 ,8.250249433106577
108.666 ,81.819 ,72.585 ,544.834 ,33.634646875965046,57.57496426276239,7.460176483264652,425,390,9.427824E-3 ,3.886632E-3 ,42.322,26,51.504,2.745,258.799E-6 ,1.463,1.869,4.388,18.395,1.623 ,8.124,10.472,18.738,24.373,0.764596,0.364501,6.124 ,8.041269841269841
95.164 ,35.585 ,72.509 ,215.872 ,35.14936661465003,47.308179178795015,-9.403500329033843,160,147,10.754176E-3 ,2.753715E-3 ,22.222,9,26.386,2.123,228.320E-6 ,1.089,1.380,3.268,20.494,1.672 ,10.966,13.890,24.716,32.899,0.751508,0.387050,5.500 ,2.5555555555555554
104.301 ,53.400 ,74.771 ,352.877 ,30.881949551669933,55.71524293660882,7.036830373974622,487,452,9.801851E-3 ,3.156459E-3 ,42.981,26,44.646,2.352,230.506E-6 ,1.145,1.405,3.435,18.219,1.610 ,8.436,11.267,20.793,25.307,0.750111,0.391092,5.736 ,9.29514739229025
108.179 ,71.591 ,77.032 ,439.912 ,31.69860210541624,52.53092948952353,1.9025226257445114,244,228,9.328821E-3 ,3.894165E-3 ,41.628,11,46.097,3.021,281.858E-6 ,1.608,1.635,4.825,18.613,1.512 ,8.492,10.225,10.693,25.475,0.726082,0.439310,4.928 ,4.3318820861678
127.718 ,122.457 ,73.494 ,599.536 ,32.15723255754318,60.90019483374466,-0.7303979197653103,375,344,8.025946E-3 ,4.420814E-3 ,48.276,27,56.385,2.069,166.041E-6 ,0.991,1.049,2.973,15.255,1.424 ,6.648,7.132,10.287,19.943,0.768437,0.343528,5.986 ,6.996371882086168
96.286 ,43.200 ,74.746 ,348.141 ,26.817968062237156,44.267929164459304,1.5537660610449253,133,123,10.384093E-3 ,3.060456E-3 ,41.445,9,37.219,3.967,411.981E-6 ,1.915,2.483,5.745,18.475,1.587 ,8.223,14.454,35.043,24.668,0.713040,0.464057,4.505 ,2.660045351473923
212.705 ,79.652 ,86.125 ,452.569 ,34.13126974501625,49.239092430030524,-11.842436674357712,567,538,4.743168E-3 ,1.498808E-3 ,20.994,8,18.430,3.207,152.123E-6 ,1.802,2.056,5.406,17.614,1.517 ,8.803,11.250,19.085,26.410,0.763806,0.369109,5.986 ,3.6526984126984128
290.262 ,145.743 ,188.463 ,523.916 ,32.795069172949574,51.75390491505815,-6.110124474166469,70,65,3.517441E-3 ,1.624901E-3 ,51.852,2,20.924,2.852,100.316E-6 ,1.215,0.893,3.645,20.582,1.820 ,5.113,9.458,15.963,15.339,0.731924,0.435297,5.358 ,0.5702494331065759
191.725 ,72.385 ,76.180 ,507.472 ,30.41946375667768,54.46016078673158,5.651803672384611,336,316,5.257586E-3 ,1.785331E-3 ,44.773,17,59.447,3.790,199.255E-6 ,1.869,2.101,5.606,18.775,1.674 ,7.417,12.041,20.492,22.250,0.735637,0.416264,5.167 ,4.436371882086168
165.244 ,68.286 ,114.849 ,377.490 ,35.094288335742924,51.5334426380602,-0.498168573399175,223,215,6.017643E-3 ,1.959565E-3 ,30.698,7,16.973,3.208,193.023E-6 ,1.826,1.705,5.479,17.611,1.579 ,7.639,11.922,17.033,22.916,0.739345,0.404263,5.278 ,2.1898412698412697
175.180 ,26.994 ,129.927 ,216.925 ,41.159110107243755,56.166803458092346,9.905699534712156,99,97,5.698985E-3 ,1.016455E-3 ,29.730,1,8.962,3.713,211.606E-6 ,1.927,2.235,5.782,22.083,1.880 ,9.122,11.115,27.495,27.366,0.737411,0.435487,5.275 ,0.7792290249433107
138.754 ,15.879 ,108.282 ,190.325 ,33.368099245238994,50.292274337677995,6.006076514444002,369,357,7.205191E-3 ,0.817235E-3 ,19.619,11,27.400,2.228,160.556E-6 ,1.150,1.273,3.450,17.420,1.509 ,8.226,11.259,17.829,24.678,0.809559,0.271363,7.356 ,3.704943310657596
146.762 ,18.337 ,121.039 ,203.598 ,33.30245372429531,65.87753214760495,-7.943873462707489,298,286,6.838461E-3 ,0.850371E-3 ,58.943,11,47.598,1.204,82.357E-6 ,0.565,0.650,1.694,13.566,1.136 ,5.559,6.961,7.121,16.676,0.872807,0.171538,9.983 ,4.958820861678005
136.426 ,12.375 ,113.227 ,175.450 ,32.87622363171081,47.19845284241855,-1.016739274737445,540,526,7.360076E-3 ,0.679113E-3 ,19.688,10,22.292,2.470,181.774E-6 ,1.257,1.429,3.770,16.226,1.392 ,7.415,11.252,17.312,22.245,0.802210,0.293041,7.258 ,5.167800453514739
143.906 ,17.323 ,97.572 ,249.801 ,30.722300014190605,55.40311233135636,5.438061483591966,541,521,7.013574E-3 ,0.847845E-3 ,40.000,17,43.240,2.650,185.874E-6 ,1.345,1.598,4.036,17.743,1.592 ,8.101,11.189,15.696,24.302,0.790378,0.315381,6.829 ,6.682902494331066
122.954 ,11.527 ,95.935 ,165.693 ,28.650366953667593,46.59400364015586,5.676721814205468,233,228,8.127071E-3 ,0.736951E-3 ,28.622,4,31.053,1.945,158.067E-6 ,1.012,1.180,3.036,18.048,1.689 ,7.911,11.745,21.439,23.732,0.801918,0.285130,6.967 ,2.8690249433106576
147.582 ,28.423 ,115.074 ,247.139 ,36.04232925828688,58.91448465220358,2.7859791054153282,363,347,6.845705E-3 ,1.211324E-3 ,27.731,12,27.817,2.608,178.537E-6 ,1.248,1.539,3.743,18.807,1.567 ,8.668,11.451,14.688,26.003,0.779790,0.335762,6.673 ,3.600453514739229
140.993 ,41.406 ,82.836 ,587.946 ,30.09959953311844,53.286143331760925,-3.4920637252506315,1245,1197,7.134378E-3 ,1.385710E-3 ,35.915,37,40.077,2.382,169.947E-6 ,1.218,1.424,3.655,17.343,1.490 ,7.771,11.181,16.472,23.313,0.793424,0.304720,6.782 ,14.624126984126985
140.786 ,32.071 ,82.288 ,574.221 ,30.780736200705306,47.416606142085556,4.87949222861468,3096,3009,7.140646E-3 ,1.174428E-3 ,22.676,68,27.252,2.591,185.021E-6 ,1.332,1.582,3.995,17.521,1.525 ,7.975,11.537,17.849,23.926,0.791404,0.321837,6.954 ,29.9318820861678
216.639 ,103.606 ,112.709 ,567.658 ,26.736864515023242,61.84524878233666,-2.299620602909899,433,407,4.672933E-3 ,2.055512E-3 ,64.296,20,61.679,1.588,74.200E-6 ,0.797,0.956,2.391,15.903,1.281 ,8.051,9.302,17.069,24.152,0.815888,0.262129,7.612 ,6.787392290249433
158.989 ,19.105 ,71.746 ,228.891 ,37.8332299203537,53.6993197125596,4.765854176251975,799,782,6.305700E-3 ,0.859724E-3 ,19.569,10,21.646,2.556,161.184E-6 ,1.309,1.534,3.928,17.844,1.558 ,8.353,11.461,19.920,25.059,0.806329,0.292314,7.470 ,6.526167800453515
149.436 ,52.975 ,118.111 ,597.565 ,36.115728687591805,54.41546945982806,4.380796605631915,593,573,6.697917E-3 ,1.348866E-3 ,24.382,16,29.260,2.378,159.277E-6 ,1.193,1.352,3.579,17.852,1.484 ,8.448,11.748,13.630,25.344,0.817048,0.263988,7.918 ,5.690249433106576
138.365 ,13.552 ,109.413 ,203.826 ,37.36536370086985,65.96814830195798,-9.97074282779953,250,231,7.264761E-3 ,0.700751E-3 ,49.497,17,51.718,3.009,218.626E-6 ,1.616,2.035,4.848,19.158,1.578 ,8.171,8.809,3.908,24.514,0.777419,0.336554,6.534 ,4.018412698412698
126.395 ,10.638 ,90.845 ,167.160 ,35.50057902870425,56.16056948181366,1.5904101000060111,243,235,7.930829E-3 ,0.723152E-3 ,30.592,7,32.509,3.134,248.520E-6 ,1.654,1.889,4.961,16.702,1.530 ,7.108,10.752,15.964,21.325,0.766936,0.346782,5.801 ,3.078004535147392
182.031 ,181.703 ,75.111 ,599.097 ,37.05955255874014,56.37012380784337,4.054724885687474,128,115,5.949013E-3 ,4.970598E-3 ,38.537,7,50.244,3.721,221.357E-6 ,1.769,2.141,5.306,22.761,1.792 ,10.751,6.127,--undefined--,32.253,0.733963,0.407488,5.063 ,2.0853514739229024
169.404 ,112.253 ,73.466 ,496.423 ,33.55951440869904,55.20448640245556,5.327313024020759,199,180,6.212421E-3 ,3.530764E-3 ,50.313,10,48.539,4.722,293.344E-6 ,2.362,2.892,7.086,21.682,1.615 ,9.075,14.402,33.937,27.226,0.694398,0.514883,4.402 ,3.2347392290249433
150.361 ,25.662 ,106.305 ,479.995 ,40.08841535236641,53.57907544737746,-2.3669120950357705,1188,1163,6.674623E-3 ,0.973752E-3 ,15.441,14,16.484,2.823,188.432E-6 ,1.485,1.763,4.456,18.038,1.557 ,8.264,12.058,19.123,24.792,0.804632,0.291825,7.434 ,9.556371882086168
150.921 ,46.237 ,97.563 ,466.876 ,37.63748613681878,56.5928403324391,2.4284932229452005,619,597,6.726554E-3 ,1.522286E-3 ,25.347,12,27.546,2.771,186.402E-6 ,1.487,1.748,4.460,19.533,1.660 ,8.726,13.593,24.680,26.179,0.779878,0.339122,6.565 ,5.794739229024943
158.447 ,24.804 ,121.972 ,252.117 ,38.0785005331384,69.02657186061289,7.195837628552997,214,194,6.297839E-3 ,0.948049E-3 ,81.410,19,82.284,1.938,122.036E-6 ,0.925,1.185,2.776,15.219,1.345 ,7.042,11.598,10.386,21.126,0.826452,0.241773,7.905 ,9.399637188208617
147.083 ,26.564 ,88.898 ,458.210 ,36.44263605670633,56.81086221880931,6.251329901548561,883,853,6.818367E-3 ,1.033829E-3 ,28.281,25,29.633,2.905,198.051E-6 ,1.481,1.674,4.442,19.066,1.624 ,8.879,13.592,17.753,26.638,0.773478,0.343740,6.114 ,8.87718820861678
147.890 ,19.103 ,103.747 ,210.688 ,34.23400058179944,52.41895161924405,0.44713311026002944,756,740,6.805141E-3 ,0.896843E-3 ,31.742,11,15.453,2.248,152.960E-6 ,1.179,1.321,3.538,15.867,1.469 ,7.122,10.177,14.288,21.366,0.807371,0.288140,7.508 ,7.780045351473923
157.257 ,49.532 ,93.952 ,421.286 ,34.77696185938476,55.256184934940826,3.9812121796431454,356,347,6.422155E-3 ,1.742790E-3 ,31.214,5,31.886,2.557,164.209E-6 ,1.327,1.644,3.980,17.258,1.541 ,7.008,12.184,21.199,21.024,0.822445,0.261785,8.136 ,3.4959637188208617
141.575 ,16.698 ,75.660 ,209.753 ,39.200565231468495,54.584568393908825,6.0589876706165455,735,720,7.076858E-3 ,0.873226E-3 ,13.376,10,16.565,2.207,156.192E-6 ,1.134,1.295,3.401,17.822,1.550 ,7.764,12.460,21.016,23.292,0.815816,0.272694,7.680 ,6.31718820861678
146.673 ,18.843 ,114.848 ,319.357 ,40.0950510862049,60.62086603701069,5.670965237499845,1011,986,6.829275E-3 ,0.807997E-3 ,20.989,20,24.535,2.259,154.286E-6 ,1.091,1.292,3.274,16.518,1.487 ,7.280,10.460,18.353,21.840,0.830988,0.242048,8.273 ,9.138412698412699
147.991 ,48.576 ,85.934 ,547.379 ,36.30944374993484,56.91916792141448,3.0623061298465952,900,868,6.805523E-3 ,1.389593E-3 ,32.313,21,35.769,2.693,183.259E-6 ,1.416,1.664,4.249,18.848,1.600 ,8.404,13.094,20.890,25.211,0.798411,0.303475,7.104 ,9.504126984126984
132.194 ,16.091 ,108.659 ,190.114 ,38.5031539052353,55.53805521616955,0.7490191405273411,375,365,7.549263E-3 ,0.913563E-3 ,23.515,9,25.820,2.497,188.484E-6 ,1.244,1.523,3.732,15.684,1.457 ,7.159,9.037,12.846,21.478,0.801136,0.292329,6.998 ,4.070657596371882
130.704 ,20.778 ,96.610 ,257.558 ,36.506410104692,67.58152609761393,-2.2143723357186227,363,347,7.660580E-3 ,1.162004E-3 ,54.503,15,52.977,2.857,218.899E-6 ,1.468,1.618,4.405,16.112,1.387 ,7.284,9.810,12.899,21.853,0.775093,0.348524,6.511 ,6.473922902494331
96.008 ,6.200 ,89.897 ,110.307 ,43.27447319199335,53.669148982008956,-2.439069001617768,56,55,10.407742E-3 ,0.655451E-3 ,13.043,0,0,1.091,113.537E-6 ,0.523,0.661,1.569,15.377,1.503 ,5.043,8.073,14.171,15.129,0.819735,0.237547,7.111 ,0.726984126984127
133.964 ,112.570 ,75.537 ,596.107 ,41.2244565585892,60.01716103023236,2.1124810312615327,270,241,7.973247E-3 ,4.245279E-3 ,34.946,16,44.455,2.739,218.418E-6 ,1.336,1.231,4.009,21.300,1.776 ,9.751,16.663,21.520,29.253,0.711306,0.461294,4.294 ,3.75718820861678
97.286 ,55.595 ,74.568 ,344.023 ,42.63917828822955,59.74468835819596,9.97446532884905,169,156,10.319612E-3 ,3.450836E-3 ,34.868,11,31.573,1.939,200.111E-6 ,0.983,1.226,2.948,18.618,1.494 ,8.236,11.469,13.330,24.709,0.705783,0.491937,4.396 ,3.078004535147392
103.720 ,78.713 ,65.059 ,494.157 ,42.07231005620036,63.21148831561864,-3.6687337012336374,467,425,9.874070E-3 ,4.265335E-3 ,37.255,29,44.057,2.055,202.889E-6 ,1.048,1.170,3.145,18.810,1.600 ,8.545,12.645,15.478,25.635,0.756522,0.375958,5.832 ,8.198004535147392
119.803 ,99.557 ,71.275 ,580.431 ,34.928677858541405,59.91337439070235,3.2705181767758433,735,668,8.592442E-3 ,4.479763E-3 ,48.908,48,45.441,2.866,246.268E-6 ,1.450,1.773,4.349,19.140,1.657 ,9.026,12.272,17.487,27.077,0.724639,0.433953,4.878 ,15.14657596371882
135.444 ,13.237 ,83.646 ,166.211 ,40.79106183515107,52.23444845354333,0.44822919881050616,126,121,7.350524E-3 ,0.706851E-3 ,14.050,3,9.638,1.981,145.587E-6 ,1.104,1.213,3.313,19.298,1.585 ,9.350,13.546,28.960,28.049,0.765912,0.355859,5.988 ,1.2494331065759636
134.628 ,28.567 ,74.829 ,589.134 ,40.90761713755492,59.55410915791522,-1.4380298470929322,1324,1288,7.451115E-3 ,1.254269E-3 ,23.577,32,28.957,2.795,208.267E-6 ,1.443,1.761,4.329,16.997,1.490 ,7.923,11.781,18.933,23.769,0.766915,0.356268,5.957 ,13.735963718820862
148.837 ,41.939 ,87.389 ,598.028 ,37.82192928012722,64.68801006678052,5.388083857958863,1269,1208,6.733290E-3 ,1.477686E-3 ,46.468,58,52.425,2.557,172.202E-6 ,1.266,1.474,3.797,17.326,1.519 ,7.873,10.990,20.376,23.620,0.787700,0.317404,6.856 ,17.4453514739229
148.604 ,39.675 ,66.286 ,441.577 ,34.47003780516156,55.36261470142847,-1.981105137820383,832,804,6.741027E-3 ,1.520538E-3 ,35.714,23,41.138,2.472,166.632E-6 ,1.326,1.527,3.978,17.157,1.537 ,7.795,11.959,20.191,23.384,0.794922,0.316532,7.481 ,9.556371882086168
130.553 ,32.208 ,78.128 ,514.597 ,38.82764237255831,59.642444143531634,5.031763790454176,669,639,7.650550E-3 ,1.192400E-3 ,33.373,25,30.437,2.114,161.722E-6 ,1.063,1.212,3.190,17.226,1.513 ,8.166,10.767,19.698,24.498,0.778558,0.338139,6.605 ,8.45922902494331
137.829 ,29.626 ,77.612 ,308.629 ,37.84242493985608,59.752976972706875,3.929549577658933,626,600,7.277510E-3 ,1.387053E-3 ,36.151,23,31.221,2.972,216.303E-6 ,1.545,1.813,4.636,19.755,1.662 ,9.804,12.620,19.305,29.413,0.748720,0.398652,5.644 ,7.727800453514739
150.998 ,22.818 ,109.319 ,236.225 ,41.2862849720556,64.5432835437496,-7.490021160417068,823,797,6.649665E-3 ,0.957102E-3 ,37.253,22,39.620,2.546,169.281E-6 ,1.289,1.503,3.866,18.152,1.616 ,8.482,11.466,14.150,25.447,0.806065,0.281817,7.231 ,9.138412698412699
137.769 ,16.519 ,77.922 ,178.442 ,49.444821953644364,58.289150366333224,15.662934181157645,326,319,7.248568E-3 ,1.020871E-3 ,10.623,5,11.440,2.897,210.014E-6 ,1.449,1.903,4.347,17.240,1.535 ,8.116,12.138,15.868,24.348,0.799197,0.305950,7.201 ,2.7645351473922903
148.312 ,43.447 ,90.148 ,492.686 ,39.58833726276365,59.17606801867709,-3.1233008087191143,683,658,6.771117E-3 ,1.278194E-3 ,34.330,18,30.323,2.703,183.025E-6 ,1.334,1.591,4.001,16.282,1.420 ,7.407,10.585,15.023,22.220,0.787941,0.327626,6.968 ,7.727800453514739
156.122 ,36.886 ,70.742 ,473.179 ,41.38867308541429,59.30105676872563,5.48874979958324,747,719,6.467123E-3 ,1.198599E-3 ,23.459,17,27.337,2.941,190.197E-6 ,1.432,1.673,4.295,16.304,1.533 ,7.578,11.424,17.004,22.734,0.797624,0.314459,7.187 ,6.682902494331066
147.540 ,40.379 ,107.587 ,464.705 ,41.401622842705954,59.19345862538098,8.236396653611123,1229,1187,6.821155E-3 ,1.219596E-3 ,23.280,29,29.428,2.469,168.421E-6 ,1.241,1.439,3.724,17.156,1.535 ,7.921,10.494,16.747,23.764,0.786597,0.325008,6.779 ,11.802902494331066
147.106 ,44.417 ,99.717 ,594.107 ,40.61240737317382,62.34037059410619,0.26160657010774074,1026,998,6.829980E-3 ,1.306017E-3 ,31.544,23,34.126,2.855,194.972E-6 ,1.499,1.792,4.496,19.045,1.597 ,8.474,12.924,20.566,25.421,0.773139,0.351301,6.258 ,10.653514739229024
133.382 ,15.791 ,86.050 ,179.735 ,33.57453899182007,56.2132795935797,-1.2345191802883246,739,713,7.519272E-3 ,0.895081E-3 ,40.340,21,42.528,2.847,214.069E-6 ,1.430,1.588,4.290,17.218,1.548 ,7.513,11.379,20.063,22.540,0.775608,0.349468,6.324 ,10.026575963718821
112.796 ,86.899 ,75.887 ,595.504 ,46.4390612149182,61.79951583531319,-5.226992661706191,335,320,9.001185E-3 ,3.398379E-3 ,25.909,13,30.381,3.045,274.064E-6 ,1.510,1.641,4.530,20.268,1.652 ,9.897,16.303,18.361,29.692,0.762395,0.372460,6.225 ,4.436371882086168
90.855 ,7.520 ,75.948 ,109.057 ,43.428427383448884,59.33610454275161,10.136773846531824,152,143,10.955019E-3 ,0.935332E-3 ,27.985,8,31.440,2.283,250.101E-6 ,0.995,1.182,2.986,15.793,1.321 ,7.975,11.823,13.562,23.925,0.770111,0.347267,6.365 ,2.7122902494331065
150.852 ,140.123 ,74.868 ,593.667 ,41.17709090001621,60.72150557178246,15.232773305632852,335,306,6.897550E-3 ,4.675166E-3 ,38.621,15,34.060,3.554,245.116E-6 ,1.713,2.027,5.140,18.406,1.590 ,7.732,10.784,11.024,23.197,0.708607,0.482629,4.602 ,4.3841269841269845
109.817 ,85.704 ,71.298 ,596.643 ,42.470711045533605,59.99089851817686,1.3317756318647433,786,714,9.310518E-3 ,4.050276E-3 ,36.657,51,48.099,3.058,284.737E-6 ,1.473,1.685,4.420,20.334,1.653 ,9.181,12.547,22.726,27.544,0.740854,0.411835,5.449 ,13.370249433106576
146.827 ,14.621 ,119.447 ,217.698 ,47.827434502956976,62.13400518067691,6.268744897303812,1030,1009,6.844752E-3 ,0.678423E-3 ,13.501,19,16.329,2.374,162.519E-6 ,1.217,1.403,3.650,14.990,1.345 ,6.472,9.977,15.984,19.415,0.832584,0.237518,8.358 ,8.406984126984128
135.225 ,45.761 ,98.530 ,502.427 ,34.90121183677861,59.07377084278004,6.084081134397805,412,393,7.410410E-3 ,1.759464E-3 ,44.020,16,49.050,2.944,218.188E-6 ,1.502,1.816,4.505,20.559,1.730 ,11.090,13.891,21.812,33.271,0.742379,0.416146,5.379 ,6.055963718820862
130.701 ,51.622 ,97.498 ,415.451 ,34.05335229310255,65.69302428144107,0.9183706183124218,497,473,7.681610E-3 ,2.141399E-3 ,44.473,19,50.472,1.907,146.495E-6 ,1.011,1.194,3.033,17.159,1.504 ,7.386,9.909,16.435,22.159,0.823262,0.241838,7.649 ,7.727800453514739
141.044 ,18.837 ,96.846 ,197.243 ,45.46477994391605,62.037553825356795,4.924749516619212,480,461,7.098245E-3 ,0.986961E-3 ,28.655,16,32.261,2.565,182.060E-6 ,1.247,1.356,3.741,17.991,1.540 ,8.799,12.991,17.865,26.396,0.781678,0.340163,6.705 ,5.167800453514739
131.481 ,11.282 ,86.564 ,171.408 ,43.70862137934928,67.04112961624443,15.061930046282896,208,202,7.617111E-3 ,0.708435E-3 ,41.367,4,18.666,2.424,184.629E-6 ,1.218,1.462,3.654,17.170,1.582 ,7.636,11.138,15.024,22.909,0.771964,0.356307,6.199 ,2.8167800453514737
147.440 ,22.164 ,74.961 ,266.559 ,45.65862449445429,63.5308534077726,0.7853234683571448,1414,1370,6.799422E-3 ,0.956053E-3 ,26.747,36,33.081,2.582,175.560E-6 ,1.303,1.546,3.910,17.481,1.538 ,7.788,11.219,18.199,23.363,0.805880,0.288207,7.256 ,14.206167800453514
129.021 ,10.138 ,103.919 ,151.416 ,43.19054219670279,62.20460763400733,1.3488072679873624,403,394,7.777845E-3 ,0.669299E-3 ,30.044,6,11.009,2.561,199.212E-6 ,1.267,1.399,3.802,16.769,1.492 ,7.441,11.123,18.681,22.323,0.798417,0.302868,7.133 ,4.593106575963719
157.323 ,31.193 ,113.751 ,254.882 ,47.58754186044219,60.890780124878965,9.089100018722256,492,481,6.366624E-3 ,1.176055E-3 ,11.559,7,12.835,3.152,200.657E-6 ,1.694,1.898,5.081,16.475,1.548 ,7.439,10.348,10.768,22.318,0.794562,0.314099,7.220 ,3.75718820861678
152.603 ,23.834 ,92.692 ,224.348 ,43.21960578140702,59.79651145296832,2.2556408435498065,586,574,6.556142E-3 ,1.032877E-3 ,22.519,9,22.856,2.283,149.653E-6 ,1.106,1.326,3.317,16.571,1.421 ,7.924,10.830,15.173,23.773,0.812358,0.273746,7.801 ,5.272290249433107
135.917 ,26.938 ,98.401 ,311.610 ,34.391324083299814,61.80375669515372,-0.04767299301931524,937,901,7.384575E-3 ,1.327001E-3 ,48.143,31,50.832,2.282,168.539E-6 ,1.202,1.329,3.605,16.127,1.410 ,7.820,11.487,16.628,23.461,0.798059,0.297731,6.923 ,14.5718820861678
154.685 ,62.966 ,102.035 ,579.504 ,48.30791679417264,66.04183965109056,5.546490987845967,662,638,6.553135E-3 ,1.616442E-3 ,22.735,16,25.818,3.269,214.211E-6 ,1.579,1.871,4.736,19.076,1.686 ,8.341,13.545,21.912,25.022,0.779373,0.335807,6.535 ,6.108208616780045
133.518 ,11.531 ,107.470 ,197.754 ,47.98053013648069,63.15313513994351,2.0369175317116657,596,583,7.522833E-3 ,0.810621E-3 ,20.946,11,24.156,2.893,217.613E-6 ,1.348,1.697,4.044,17.013,1.485 ,7.952,12.318,17.666,23.857,0.779298,0.340971,6.388 ,5.951473922902494
154.438 ,46.860 ,113.513 ,460.553 ,47.010954201613714,65.12420147871592,12.96128521628173,439,425,6.541685E-3 ,1.497463E-3 ,26.415,7,19.594,2.644,172.992E-6 ,1.367,1.544,4.101,17.855,1.585 ,8.058,11.581,17.537,24.174,0.791849,0.313695,6.718 ,4.279637188208617
157.250 ,31.119 ,113.109 ,278.892 ,47.989023328060014,65.59097719622748,0.6966821620412257,920,898,6.386374E-3 ,1.143111E-3 ,18.157,15,20.152,2.603,166.232E-6 ,1.345,1.604,4.036,17.513,1.550 ,7.829,11.391,15.385,23.488,0.801188,0.293086,7.014 ,7.4143310657596375
156.782 ,24.892 ,107.706 ,253.319 ,45.77115661284382,62.80744051961403,13.286564905635792,931,911,6.395991E-3 ,0.992045E-3 ,27.574,17,32.076,2.530,161.830E-6 ,1.315,1.604,3.946,16.669,1.439 ,8.009,11.490,16.750,24.026,0.807770,0.297063,7.518 ,8.772698412698412
154.421 ,16.531 ,114.705 ,208.842 ,43.90024497533025,61.62112869890345,10.746377512084372,463,445,6.540537E-3 ,0.743523E-3 ,31.760,10,31.890,3.006,196.621E-6 ,1.620,1.736,4.861,18.825,1.593 ,8.495,13.481,22.667,25.484,0.792055,0.326133,7.009 ,4.697596371882086
151.667 ,21.105 ,107.110 ,205.046 ,45.06530019447992,62.631000538407385,11.7026018762963,760,737,6.615105E-3 ,0.970125E-3 ,27.516,19,29.129,3.187,210.846E-6 ,1.619,1.794,4.858,17.383,1.549 ,8.333,12.048,19.846,24.998,0.770142,0.354187,6.307 ,7.88453514739229
147.249 ,38.300 ,109.921 ,535.032 ,44.41188435872808,66.58240815132453,0.7771904631636829,793,767,6.828636E-3 ,1.192837E-3 ,30.535,23,31.999,2.529,172.693E-6 ,1.299,1.517,3.897,18.578,1.556 ,8.706,11.594,14.609,26.118,0.797310,0.295891,6.911 ,8.250249433106577
203.083 ,72.217 ,112.573 ,561.264 ,33.349848325060975,64.23088647028376,3.162292155787933,243,229,4.937416E-3 ,1.508917E-3 ,50.973,5,46.460,4.376,216.073E-6 ,2.254,2.740,6.761,19.468,1.673 ,9.494,15.488,24.224,28.482,0.747428,0.412374,5.711 ,2.607800453514739
142.988 ,12.242 ,125.521 ,195.807 ,49.9614475000352,61.99116311570148,12.350730518933211,223,216,7.033926E-3 ,0.603986E-3 ,19.487,6,17.797,2.388,167.983E-6 ,1.275,1.518,3.826,14.937,1.360 ,6.892,9.512,13.830,20.676,0.822085,0.266856,7.955 ,1.9808616780045352
145.571 ,43.259 ,87.729 ,541.999 ,48.54382211741649,64.33893017433778,16.73423664447627,378,370,6.863908E-3 ,1.560805E-3 ,22.689,6,26.224,2.257,154.920E-6 ,1.074,1.314,3.222,16.942,1.512 ,8.070,10.567,14.662,24.210,0.811003,0.281893,7.495 ,3.600453514739229
148.484 ,20.567 ,95.125 ,233.237 ,47.48808602226518,62.612274248145646,11.817168194574359,582,568,6.774204E-3 ,0.974675E-3 ,23.092,12,23.824,3.719,251.933E-6 ,1.939,2.277,5.818,18.989,1.579 ,9.581,14.192,20.279,28.742,0.747971,0.404271,5.611 ,5.272290249433107
135.183 ,13.787 ,99.984 ,188.724 ,46.04759047394611,62.490539608119064,-4.512623779465753,977,955,7.404127E-3 ,0.759227E-3 ,23.824,16,25.426,2.091,154.851E-6 ,1.017,1.194,3.052,16.124,1.433 ,7.519,11.111,17.593,22.556,0.818506,0.261139,7.547 ,9.817596371882086
152.818 ,19.229 ,120.361 ,224.940 ,46.17300551979506,61.93673744075625,8.280507921632033,553,539,6.561475E-3 ,0.810912E-3 ,26.706,7,20.927,2.283,149.829E-6 ,1.180,1.364,3.541,18.773,1.660 ,8.627,13.196,19.500,25.882,0.775652,0.344437,6.212 ,5.167800453514739
139.689 ,48.236 ,90.704 ,584.130 ,44.23422708787582,61.29979235415842,0.6252825529574592,1271,1223,7.201557E-3 ,1.466595E-3 ,31.513,34,33.743,3.029,218.166E-6 ,1.562,1.852,4.687,19.742,1.663 ,9.626,14.118,22.581,28.879,0.754764,0.389602,5.668 ,14.310657596371883
160.334 ,34.098 ,107.034 ,466.064 ,48.58420599470404,66.62615453129108,-1.743958378552555,699,685,6.305536E-3 ,0.984920E-3 ,23.920,8,13.699,3.214,202.662E-6 ,1.663,1.968,4.988,20.013,1.687 ,8.819,13.968,24.315,26.458,0.784391,0.325887,6.518 ,6.055963718820862
144.042 ,21.225 ,113.104 ,341.812 ,48.65339728067393,67.63888268146968,11.144292632957658,602,589,6.981120E-3 ,0.813955E-3 ,27.346,10,30.821,2.594,181.108E-6 ,1.274,1.493,3.822,17.334,1.549 ,7.745,12.128,20.565,23.235,0.802164,0.297265,7.184 ,6.212698412698413
139.887 ,28.475 ,76.781 ,243.680 ,47.603734911139625,65.00746305487553,3.6940745661586205,500,486,7.173481E-3 ,1.352187E-3 ,26.305,12,16.834,3.086,221.367E-6 ,1.548,1.758,4.645,16.102,1.380 ,7.576,10.685,16.799,22.728,0.806438,0.297962,7.573 ,5.011065759637188
129.810 ,33.790 ,77.108 ,330.750 ,45.25959695731286,65.37771360844773,4.672791180639404,350,333,7.772833E-3 ,1.751596E-3 ,42.202,14,46.004,3.226,250.772E-6 ,1.773,2.170,5.320,19.074,1.583 ,8.487,12.024,20.966,25.462,0.746483,0.394676,5.345 ,5.4812698412698415
115.864 ,73.194 ,73.190 ,490.482 ,52.02866250533737,68.26956542989284,13.526238983669465,299,282,8.737172E-3 ,3.569348E-3 ,29.356,14,31.316,2.830,247.288E-6 ,1.271,1.533,3.813,18.363,1.407 ,8.865,14.670,27.032,26.595,0.766975,0.354495,6.006 ,4.227392290249433
111.438 ,82.858 ,72.447 ,599.004 ,49.499569635176684,69.16042132288437,0.4442846638876696,496,447,9.133602E-3 ,4.039807E-3 ,39.044,34,49.213,3.195,291.781E-6 ,1.584,1.886,4.751,18.571,1.679 ,8.802,11.897,24.924,26.407,0.745245,0.398695,5.334 ,8.615963718820861
103.659 ,57.209 ,72.386 ,549.059 ,50.84016339260958,67.44784932385508,9.505892623581786,640,592,9.763235E-3 ,3.186577E-3 ,33.732,40,44.534,3.307,322.917E-6 ,1.698,2.033,5.094,19.930,1.626 ,10.629,15.764,21.360,31.888,0.734196,0.422940,5.103 ,10.914739229024944
106.684 ,77.022 ,72.682 ,545.800 ,50.73563434530413,66.95981127411854,7.497490912107903,717,667,9.563150E-3 ,3.669521E-3 ,28.508,35,40.635,2.889,276.293E-6 ,1.424,1.621,4.272,16.876,1.423 ,8.162,11.546,16.013,24.487,0.765619,0.368458,6.129 ,11.228208616780046
110.837 ,77.157 ,72.726 ,535.854 ,43.8771468861892,67.81557592087381,7.040114825134549,172,148,9.456287E-3 ,3.676520E-3 ,51.074,15,57.941,3.178,300.475E-6 ,1.551,1.758,4.653,18.863,1.547 ,8.468,10.710,12.605,25.403,0.758829,0.364866,5.861 ,4.227392290249433
156.415 ,51.479 ,74.844 ,564.467 ,49.44184420303357,69.09612152860825,7.056728548634899,1366,1313,6.468303E-3 ,1.724948E-3 ,30.294,37,31.918,3.161,204.470E-6 ,1.580,1.846,4.741,17.444,1.533 ,8.317,12.545,20.784,24.952,0.773980,0.349009,6.339 ,13.631473922902494
152.236 ,15.580 ,116.510 ,191.004 ,56.09700910046992,67.62342579823859,6.339475610331927,308,305,6.621284E-3 ,0.752392E-3 ,12.987,2,3.442,3.163,209.462E-6 ,1.693,2.056,5.078,17.683,1.512 ,7.858,11.325,21.991,23.575,0.796682,0.322090,7.247 ,2.346575963718821
148.059 ,3.770 ,142.342 ,154.376 ,39.20806911969641,65.93323353824896,4.387736789088034,37,36,6.772970E-3 ,0.187691E-3 ,55.405,0,0,1.439,97.430E-6 ,0.787,0.873,2.362,18.715,1.560 ,10.643,13.556,19.415,31.930,0.775770,0.329246,6.277 ,0.7792290249433107
165.639 ,45.561 ,116.359 ,504.687 ,48.98841180930782,67.00943253212056,0.028033622515288147,727,711,6.055708E-3 ,1.351473E-3 ,27.172,11,19.108,2.827,171.224E-6 ,1.463,1.612,4.389,18.674,1.621 ,9.579,12.558,18.417,28.738,0.766438,0.369018,6.029 ,6.369433106575964
164.079 ,28.999 ,116.037 ,235.192 ,49.11608636060034,65.40751539556469,8.98453190360065,472,462,6.122148E-3 ,1.087090E-3 ,30.233,6,20.163,2.384,145.922E-6 ,1.232,1.390,3.695,16.481,1.440 ,7.722,11.334,16.476,23.167,0.805004,0.286005,7.205 ,4.3318820861678
151.023 ,25.279 ,90.200 ,266.153 ,50.48694177225763,64.74486359109962,2.3173165937543225,634,618,6.629110E-3 ,1.031512E-3 ,22.719,14,18.430,3.242,214.895E-6 ,1.598,1.843,4.794,18.079,1.559 ,8.112,12.444,19.451,24.336,0.771090,0.357730,6.296 ,5.846984126984127
166.608 ,26.749 ,95.183 ,204.368 ,45.09099469376982,64.57475218679923,17.04194782591013,178,171,5.988347E-3 ,1.035816E-3 ,41.799,4,40.516,2.684,160.730E-6 ,1.350,1.451,4.051,17.816,1.507 ,8.417,11.480,13.319,25.250,0.744496,0.416091,5.424 ,1.9286167800453515
158.599 ,44.202 ,110.418 ,572.499 ,49.863459600610206,65.90590655698291,12.722375626236136,1253,1215,6.346425E-3 ,1.262732E-3 ,23.641,31,28.767,2.448,155.366E-6 ,1.268,1.412,3.804,17.142,1.523 ,8.169,10.962,15.307,24.508,0.799377,0.295845,6.963 ,11.071473922902495
139.740 ,10.814 ,118.830 ,173.165 ,48.69194361246146,63.022681913063316,19.86125695219353,420,411,7.178191E-3 ,0.602668E-3 ,23.227,6,21.570,2.722,195.419E-6 ,1.399,1.678,4.196,19.510,1.613 ,9.341,13.825,19.661,28.023,0.761825,0.369614,5.845 ,4.122902494331066
130.453 ,13.847 ,99.485 ,178.221 ,39.07810782887785,64.9571945495851,-1.3053916626693698,189,179,7.674581E-3 ,0.870457E-3 ,62.281,9,57.000,2.497,191.646E-6 ,1.192,1.295,3.577,20.108,1.703 ,10.043,11.614,11.652,30.130,0.762440,0.344671,5.582 ,4.593106575963719
139.430 ,24.128 ,85.027 ,180.281 ,40.62274371616509,69.7027858100684,-4.407645299021436,268,262,7.222802E-3 ,1.352082E-3 ,55.056,5,43.940,2.981,215.289E-6 ,1.499,1.846,4.496,17.616,1.561 ,8.460,14.001,21.006,25.379,0.763207,0.383266,6.013 ,4.488616780045351
144.663 ,22.932 ,88.440 ,206.869 ,53.78036439584169,69.28973024107931,24.783353372624475,895,860,6.933831E-3 ,1.112233E-3 ,25.299,28,33.397,2.976,206.335E-6 ,1.390,1.577,4.169,17.465,1.546 ,7.860,12.525,20.186,23.580,0.770751,0.350425,6.198 ,9.242902494331066
133.542 ,17.534 ,97.080 ,171.079 ,52.33666371271963,68.55229061670076,22.28725755841697,192,187,7.480740E-3 ,1.020602E-3 ,22.751,4,15.206,4.074,304.758E-6 ,2.093,2.522,6.278,18.027,1.578 ,7.968,10.250,16.249,23.903,0.755538,0.385254,5.801 ,1.9286167800453515
133.253 ,10.667 ,113.243 ,157.737 ,48.522773371268144,67.60562827544562,11.866743883876694,103,97,7.512632E-3 ,0.621128E-3 ,36.220,5,34.434,2.978,223.757E-6 ,1.564,1.699,4.692,16.973,1.483 ,8.804,11.029,13.601,26.412,0.727120,0.458760,5.200 ,1.3016780045351475
142.405 ,36.510 ,101.083 ,586.111 ,49.54436720299684,68.15337766458627,8.928920512830274,998,967,7.038378E-3 ,1.140070E-3 ,34.148,27,31.490,2.403,169.118E-6 ,1.213,1.405,3.639,16.567,1.473 ,7.869,11.214,17.797,23.607,0.790455,0.310246,6.638 ,11.489433106575964
146.361 ,16.905 ,115.292 ,224.969 ,50.81999035286123,67.34859762921523,-2.523503663755679,1244,1219,6.869013E-3 ,0.791211E-3 ,27.482,23,29.742,2.690,184.771E-6 ,1.409,1.641,4.228,16.797,1.468 ,7.722,10.971,16.269,23.165,0.798695,0.308707,7.061 ,12.220861678004535
155.614 ,25.866 ,117.172 ,225.469 ,49.285031615159035,66.3050245512425,9.415129835490157,540,527,6.423881E-3 ,1.078364E-3 ,32.973,11,22.399,3.099,199.068E-6 ,1.661,1.840,4.984,16.442,1.498 ,8.153,11.722,17.987,24.459,0.754022,0.392347,5.685 ,5.585759637188208
143.976 ,14.795 ,114.743 ,188.281 ,51.93643806987995,67.88219418639771,17.035139626640177,251,239,6.944696E-3 ,0.730798E-3 ,36.054,10,31.379,2.633,182.834E-6 ,1.243,1.612,3.730,17.952,1.562 ,8.459,13.696,19.623,25.377,0.737476,0.409271,4.996 ,2.973514739229025
139.488 ,14.507 ,109.234 ,192.523 ,47.07840862799686,66.46440607402324,6.602416000732973,504,492,7.188878E-3 ,0.772547E-3 ,36.655,11,22.237,2.672,192.114E-6 ,1.346,1.490,4.037,15.523,1.471 ,6.918,10.031,14.074,20.753,0.786568,0.312172,6.580 ,5.951473922902494
153.356 ,23.183 ,109.345 ,263.439 ,47.67089837244821,69.05487070983543,24.176313845933773,1165,1117,6.538755E-3 ,0.966416E-3 ,47.268,38,52.070,2.769,181.072E-6 ,1.409,1.680,4.226,18.157,1.525 ,8.733,12.475,16.364,26.198,0.764633,0.360711,5.862 ,15.773514739229025
138.063 ,18.035 ,80.032 ,192.906 ,50.23716396754604,69.29077377595557,1.0663794268494928,593,572,7.252939E-3 ,0.941161E-3 ,35.180,19,34.502,2.203,159.814E-6 ,1.062,1.141,3.185,15.969,1.400 ,7.732,11.538,16.272,23.195,0.775319,0.344510,6.239 ,7.257596371882086
172.437 ,20.620 ,122.119 ,233.410 ,61.28530560404956,76.16408487642096,32.97660003314833,561,546,5.812124E-3 ,0.741802E-3 ,20.930,9,16.227,2.361,137.219E-6 ,1.152,1.393,3.456,16.442,1.450 ,7.265,11.396,21.688,21.795,0.797295,0.305820,7.023 ,4.3318820861678
160.143 ,32.746 ,122.892 ,269.741 ,55.23013167514217,71.28840004337381,11.248973093911935,388,380,6.261023E-3 ,1.187089E-3 ,27.066,6,29.190,2.580,161.550E-6 ,1.327,1.377,3.981,17.632,1.473 ,8.642,11.623,12.218,25.925,0.793291,0.313792,6.822 ,3.5482086167800455
156.169 ,22.828 ,116.997 ,231.055 ,54.65461504198232,70.75287987205209,18.599567561857025,531,522,6.411029E-3 ,0.948162E-3 ,26.141,8,15.226,2.191,140.483E-6 ,1.090,1.449,3.269,16.662,1.478 ,7.401,11.074,18.146,22.203,0.820586,0.263194,7.820 ,4.854331065759637
157.710 ,42.781 ,88.309 ,565.237 ,55.58274138475223,72.30986744045663,18.92074703374345,1184,1153,6.367893E-3 ,1.236573E-3 ,28.293,25,30.497,2.718,173.103E-6 ,1.418,1.651,4.253,15.305,1.401 ,6.761,9.980,15.697,20.282,0.798423,0.311090,7.240 ,10.810249433106575
144.423 ,15.482 ,108.370 ,195.832 ,53.625654918748744,69.46477194604837,28.655448450408155,286,278,6.941455E-3 ,0.809784E-3 ,29.431,5,17.901,3.169,219.954E-6 ,1.645,2.012,4.934,16.107,1.414 ,7.973,11.716,14.669,23.919,0.759756,0.368554,5.765 ,3.0257596371882087
164.768 ,32.151 ,120.040 ,275.506 ,53.99531410128764,72.56015614561443,0.8233354960816465,820,804,6.079082E-3 ,1.165808E-3 ,28.670,14,21.787,2.772,168.484E-6 ,1.459,1.673,4.377,17.556,1.564 ,8.112,11.913,18.377,24.335,0.797873,0.302641,7.028 ,7.257596371882086
145.272 ,21.067 ,112.342 ,216.154 ,51.17561323183715,68.7084236936316,-9.548708936865587,977,953,6.912572E-3 ,1.017272E-3 ,27.812,21,29.094,2.379,164.441E-6 ,1.151,1.324,3.452,16.435,1.496 ,7.614,10.450,16.393,22.842,0.789336,0.324341,6.708 ,9.817596371882086
99.369 ,56.375 ,72.511 ,598.824 ,50.614741987730426,71.4885553125375,-2.4295670383595707,507,476,10.080437E-3 ,3.105663E-3 ,38.358,25,28.353,2.400,241.932E-6 ,1.189,1.445,3.567,16.708,1.402 ,8.203,11.162,15.975,24.610,0.763508,0.379804,6.267 ,8.929433106575964
92.490 ,49.827 ,70.880 ,565.319 ,57.19922565257569,71.6032255887739,6.1093031785082,607,565,10.880693E-3 ,2.813704E-3 ,29.571,38,37.299,1.884,204.995E-6 ,0.893,1.117,2.679,16.916,1.439 ,7.638,10.418,17.986,22.914,0.782666,0.321609,6.447 ,10.758004535147393
94.559 ,9.485 ,77.313 ,113.758 ,57.38359855158765,72.65731202283577,8.515578077238837,224,216,10.624875E-3 ,1.103985E-3 ,29.428,7,28.154,1.538,163.438E-6 ,0.852,0.995,2.555,14.091,1.285 ,6.223,9.089,12.569,18.668,0.780920,0.333109,6.575 ,3.704943310657596
134.481 ,133.931 ,70.463 ,599.529 ,54.493522305293084,70.17565899233225,8.233275805129013,577,516,7.861007E-3 ,5.138593E-3 ,39.809,41,50.965,2.896,227.626E-6 ,1.416,1.800,4.249,19.199,1.571 ,9.151,9.959,6.296,27.452,0.705698,0.472491,4.309 ,9.451882086167801
119.641 ,109.864 ,74.717 ,546.235 ,54.175188111629936,70.15969553608086,14.39552458843451,221,206,8.476191E-3 ,4.412700E-3 ,43.299,12,40.517,3.325,281.868E-6 ,1.591,1.581,4.774,18.309,1.558 ,9.655,12.980,16.707,28.965,0.731711,0.419857,4.934 ,3.913922902494331
188.857 ,140.859 ,72.673 ,540.852 ,44.79834245115228,69.05839284457873,-1.9146420327118652,225,200,5.623086E-3 ,4.337707E-3 ,62.347,11,28.935,4.254,239.213E-6 ,2.124,2.619,6.373,19.352,1.698 ,9.637,13.603,24.469,28.910,0.685749,0.516375,3.814 ,4.122902494331066
145.436 ,16.113 ,108.235 ,190.262 ,37.48984991617185,69.17786736611943,2.5865903855002834,125,123,6.874167E-3 ,0.799053E-3 ,60.633,1,3.525,3.494,240.187E-6 ,1.879,2.114,5.636,15.900,1.368 ,7.430,10.799,21.796,22.290,0.775422,0.356356,6.270 ,2.2420861678004536
160.330 ,23.138 ,107.394 ,231.930 ,47.32758465690881,72.95942415889408,-2.677108446808647,451,439,6.250943E-3 ,0.951772E-3 ,46.442,8,7.426,2.683,167.741E-6 ,1.350,1.452,4.051,16.309,1.511 ,7.186,11.463,19.792,21.558,0.795495,0.315670,6.942 ,5.376780045351474
